LineNo,TimeUS,Id,Pri,Total,Free,Name
6326,1.6588e+07,1,1,352,144,0
15705,1.8934e+07,1,1,352,144,0
25156,2.1291e+07,1,1,352,144,0
35061,2.3646e+07,1,1,352,144,0
45206,2.6018e+07,1,1,352,144,0
55428,2.8461e+07,1,1,352,144,0
65181,3.0789e+07,1,1,352,144,0
75236,3.3189e+07,1,1,352,144,0
85219,3.5588e+07,1,1,352,144,0
95370,3.8019e+07,1,1,352,144,0
1.052e+05,4.0376e+07,1,1,352,144,0
1.1514e+05,4.2767e+07,1,1,352,144,0
1.2493e+05,4.5096e+07,1,1,352,144,0
1.3495e+05,4.7534e+07,1,1,352,144,0
1.4487e+05,4.9921e+07,1,1,352,144,0
1.5486e+05,5.2314e+07,1,1,352,144,0
1.6474e+05,5.4685e+07,1,1,352,144,0
1.7461e+05,5.7027e+07,1,1,352,144,0
1.8437e+05,5.9369e+07,1,1,352,144,0
1.9408e+05,6.1705e+07,1,1,352,144,0
2.0397e+05,6.4098e+07,1,1,352,144,0
2.1412e+05,6.6513e+07,1,1,352,144,0
2.2384e+05,6.8838e+07,1,1,352,144,0
2.3416e+05,7.1306e+07,1,1,352,144,0
2.4435e+05,7.3702e+07,1,1,352,144,0
2.5447e+05,7.6073e+07,1,1,352,144,0
2.6484e+05,7.8491e+07,1,1,352,144,0
2.7485e+05,8.0825e+07,1,1,352,144,0
2.8504e+05,8.3215e+07,1,1,352,144,0
2.9529e+05,8.562e+07,1,1,352,144,0
