LineNo,TimeUS,Id,Pri,Total,Free,Name
8466,1.7113e+07,6,181,848,480,0
17899,1.9492e+07,6,181,848,480,0
27265,2.1813e+07,6,181,848,480,0
37498,2.4201e+07,6,181,848,480,0
47466,2.6564e+07,6,181,848,480,0
57680,2.8995e+07,6,181,848,480,0
67403,3.1324e+07,6,181,848,480,0
77502,3.3741e+07,6,181,848,480,0
87565,3.6158e+07,6,181,848,480,0
97620,3.8564e+07,6,181,848,480,0
1.0735e+05,4.0895e+07,6,181,848,480,0
1.1717e+05,4.3251e+07,6,181,848,480,0
1.2718e+05,4.5638e+07,6,181,848,480,0
1.3728e+05,4.8084e+07,6,181,848,480,0
1.4723e+05,5.0494e+07,6,181,848,480,0
1.5711e+05,5.2851e+07,6,181,848,480,0
1.6695e+05,5.5217e+07,6,181,848,480,0
1.7676e+05,5.754e+07,6,181,848,480,0
1.8657e+05,5.9898e+07,6,181,848,480,0
1.9622e+05,6.2234e+07,6,181,848,480,0
2.0621e+05,6.463e+07,6,181,848,480,0
2.1626e+05,6.7021e+07,6,181,848,480,0
2.2628e+05,6.9418e+07,6,181,848,480,0
2.3639e+05,7.184e+07,6,181,848,480,0
2.4661e+05,7.423e+07,6,181,848,480,0
2.5681e+05,7.6618e+07,6,181,848,480,0
2.6706e+05,7.9011e+07,6,181,848,480,0
2.7706e+05,8.1343e+07,6,181,848,480,0
2.8738e+05,8.3759e+07,6,181,848,480,0
2.9754e+05,8.6146e+07,6,181,848,480,0
